#U_g[V]         I[pA]
-5              13000
-4.5            11500
-4              10000
-3.5            8500
-3              7100
-2.5            5400
-2              4600
-1.5            3600
-1              2350
-0.5            1500
0               400
0.01            180
0.5             23
1               0
3               0
5               0